"Time [ns]","V(VAM_SI) [mV]","V(SI) [mV]"
0,1.27159714360539E-12,0
0.000198988724224471,-0.0965644034931407,-0.0965645380879601
0.000397977448448942,-0.193281499082236,-0.193281768718905
0.000795954896897884,-0.38708313784225,-0.387083678658236
0.00149578883233614,-0.729139345114713,-0.729140366673104
0.00242521341415154,-1.18579319246883,-1.18579516384197
0.00363017352315713,-1.78130803690931,-1.78131465694706
0.00532796493122024,-2.62541776073811,-2.62543270163208
0.00743464638916713,-3.677541141855,-3.67756738804971
0.00954132784711401,-4.73059955691819,-4.73063406112147
0.0116480093050609,-5.78008038755815,-5.78012059246649
0.0137546907630078,-6.82151425471849,-6.82155671486662
0.0163767950274207,-8.09969805164216,-8.09974010373797
0.0189988992918336,-9.35025302535618,-9.35029419171791
0.0216210035562465,-10.5654146561465,-10.5654535829239
0.0242431078206593,-11.7376926321034,-11.7377266077532
0.0268652120850722,-12.8599170803362,-12.8599449783314
0.0294873163494851,-13.9252868547994,-13.925311265052
0.032109420613898,-14.9274042187237,-14.9274286242045
0.0347315248783109,-15.8602945541933,-15.8603207899522
0.0373536291427238,-16.7184191291569,-16.7184479305063
0.0399757334071367,-17.4966895117742,-17.496720362347
0.0425978376715496,-18.1904783700221,-18.1905105471432
0.0452199419359625,-18.7956287547188,-18.7956633743632
0.0478420462003754,-19.3084652282311,-19.3085046826249
0.0504641504647882,-19.7258042133022,-19.7258479938391
0.0530862547292011,-20.0449567631218,-20.0449994532437
0.055708358993614,-20.2637272036397,-20.2637609792751
0.0588917533256058,-20.3919871151186,-20.3920019279879
0.0620751476575976,-20.3677857094943,-20.3677800451463
0.0652585419895893,-20.1901765915197,-20.1901580573009
0.0691701042340445,-19.7622169702462,-19.7621982766103
0.0730816664784997,-19.1053722036384,-19.1053646217901
0.0769932287229549,-18.2242619933923,-18.2242680288504
0.0819373229318087,-16.8011520400588,-16.801170197912
0.0868814171406626,-15.050308258174,-15.0503325185651
0.0918255113495165,-12.9951878707915,-12.9952187759831
0.0967696055583704,-10.663906003442,-10.6639511480131
0.101713699767224,-8.0888262743556,-8.08889506811473
0.106657793976078,-5.30601133848907,-5.30610957721255
0.112612614032976,-1.73602064845917,-1.73615539109477
0.118567434089873,2.00335254254234,2.0031853574926
0.124522254146771,5.83613589604585,5.83594578116487
0.130477074203668,9.68375157353097,9.68355059988508
0.136431894260566,13.4666743566362,13.4664695221261
0.142386714317463,17.1061679003336,17.1059578637142
0.148341534374361,20.5258732244015,20.5256546907778
0.154296354431258,23.6532791340775,23.6530543920122
0.160251174488156,26.4210921279779,26.4208680295403
0.16801503642597,29.3872911792414,29.3870733868388
0.175778898363784,31.5237314030496,31.5235172542579
0.183542760301598,32.7441012576972,32.7438876242314
0.191306622239412,32.988236016769,32.9880268379117
0.199070484177226,32.2247995848078,32.2246047676647
0.208506034266176,29.9441454172899,29.9439819263985
0.217941584355126,26.2402868164748,26.2401656991354
0.227377134444075,21.236542118578,21.236471092346
0.236812684533025,15.1132377936028,15.1132226160631
0.246248234621974,8.10107448062252,8.10111706831116
0.257741704134732,-1.23186632811477,-1.23176055414824
0.269235173647489,-10.9190594299864,-10.9189053283125
0.280728643160247,-20.3932647429244,-20.3930759380149
0.292222112673004,-29.089170065251,-29.0889548188978
0.303715582185761,-36.4773667048498,-36.4771310459069
0.315209051698519,-42.0970215609342,-42.0967738963111
0.326702521211276,-45.5835387804301,-45.5832915352535
0.338195990724034,-46.6898763672232,-46.6896451021195
0.349689460236791,-45.3006479806708,-45.3004492930295
0.361182929749548,-41.438423046353,-41.4382714932098
0.372676399262306,-35.2620199850764,-35.2619248399085
0.386472264590226,-25.2211388112299,-25.2211136365348
0.400268129918146,-12.9859057863539,-12.9859440559653
0.414063995246066,0.58643564258845,0.586345507030515
0.427859860573985,14.540151588886,14.5400225164939
0.441655725901905,27.8938643867375,27.8937098133563
0.455451591229825,39.7170683194603,39.7169036904871
0.469247456557745,49.2009607277722,49.2008049931533
0.483043321885665,55.7179317872225,55.717806649247
0.496839187213585,58.8654800100961,58.8654065384662
0.510635052541505,58.4916001304678,58.4915944756115
0.524430917869425,54.7001852763798,54.7002558278892
0.538226783197345,47.8365970258265,47.8367441552635
0.552022648525265,38.4551241570127,38.4553419112135
0.565818513853185,27.2714336348385,27.2717117939064
0.579614379181104,15.104206125024,15.1045313575171
0.593410244509024,2.81086499211095,2.81122094349677
0.607206109836944,-8.77739238212967,-8.777025221323
0.621001975164864,-18.9161787237104,-18.9158222920439
0.637924117273889,-28.4875543275849,-28.4872412511042
0.654846259382913,-34.2485795570153,-34.2483378361391
0.671768401491938,-35.9349822616076,-35.9348305045766
0.688690543600962,-33.720622719366,-33.7205686891926
0.705612685709987,-28.1803129529916,-28.1803543701354
0.722534827819012,-20.2055004721075,-20.2056266623215
0.739456969928036,-10.8861510471765,-10.8863443021013
0.756379112037061,-1.37610473375321,-1.37634161139039
0.773301254146085,7.2407289979,7.24047547899544
0.79022339625511,14.0675786446462,14.0673355493165
0.807145538364134,18.4826807067169,18.4824712289349
0.824067680473159,20.1892865948351,20.1891269051891
0.840989822582184,19.224245326604,19.2241430524967
0.857911964691208,15.9267248677136,15.9266791123628
0.874834106800233,10.8733050190691,10.8733072717666
0.891756248909257,4.78935369668632,4.78938913227905
0.908678391018282,-1.55110719941182,-1.55105804361876
0.925600533127306,-7.4241386253619,-7.42409756443116
0.942522675236331,-12.2412142246107,-12.2412025498507
0.959444817345356,-15.611444253917,-15.6114797427364
0.976366959454381,-17.3743694494078,-17.3744639510876
0.993289101563405,-17.6009776291013,-17.6011357000235
1.01021124367243,-16.5646617051995,-16.5648803366147
1.02713338578145,-14.687492462457,-14.6877616514761
1.04405552789048,-12.4699959859015,-12.4702998994631
1.0609776699995,-10.4142983954082,-10.4146170301985
1.07789981210853,-8.95087669893264,-8.95118800632675
1.09482195421755,-8.37824567574638,-8.37852800158105
1.11174409632658,-8.8228842505513,-8.82311874942243
1.1286662384356,-10.2238573172418,-10.2240299264835
1.14558838054463,-12.3433043944464,-12.3434070694382
1.16251052265365,-14.8006658540743,-14.8006969841951
1.17943266476268,-17.1256060263872,-17.1255701198097
1.1963548068717,-18.8224112725192,-18.8223180465179
1.21327694898073,-19.4374283533066,-19.437291343555
1.23019909108975,-18.6209750730813,-18.6208098756475
1.24712123319878,-16.1760768048689,-16.1758991276451
1.2640433753078,-12.0882077596681,-12.0880315392684
1.28096551741683,-6.53268990882095,-6.53252576824143
1.29788765952585,0.140798036123573,0.140943784880616
1.31480980163488,7.44437423837462,7.44449996476659
1.3317319437439,14.8041255497529,14.8042340740846
1.34865408585293,21.621871200021,21.6219690454934
1.36557622796195,27.3391353251429,27.339231559115
1.3859018149896,32.1079882822037,32.1080959758497
1.40622740201725,34.137115692395,34.1372481516982
1.4265529890449,33.2981666860373,33.2983333054163
1.44687857607255,29.821273997776,29.8214783002075
1.46720416310021,24.2554206973364,24.255659376119
1.48752975012786,17.3800663181684,17.3803295035672
1.50785533715551,10.084899950395,10.0851725584417
1.52818092418316,3.23913515415729,3.23939902224524
1.54850651121081,-2.42832673266296,-2.42809027516457
1.56883209823846,-6.4198388079366,-6.41964634586873
1.58915768526611,-8.5188358888427,-8.51869973438924
1.60948327229376,-8.79367831436608,-8.79360508234618
1.62980885932141,-7.55831582383107,-7.5583059663107
1.65013444634906,-5.29930752814921,-5.29935583866008
1.67046003337672,-2.58347476949744,-2.58357170227566
1.69078562040437,0.037452411726582,0.0373188791121564
1.71111120743202,2.10959105359469,2.10943335021846
1.73143679445967,3.33475335107358,3.33458238605975
1.75176238148732,3.59619769981367,3.59602139357817
1.77208796851497,2.95106352084503,2.95088601821876
1.79241355554262,1.59402770178406,1.59384935950876
1.81273914257027,-0.198699622071631,-0.198881524666954
1.83306472959792,-2.13322700159672,-2.1334170030512
1.85339031662557,-3.95740308611812,-3.95760598998202
1.87371590365323,-5.50523825022568,-5.50545756757151
1.89404149068088,-6.7192152840969,-6.71945194641483
1.91436707770853,-7.64788324456547,-7.64813480566679
1.93469266473618,-8.42083685070548,-8.42109730482376
1.95501825176383,-9.20726087635253,-9.20752110814591
1.97534383879148,-10.1669828265279,-10.1672315986148
1.99566942581913,-11.4040071674811,-11.4042324639876
2.01599501284678,-12.9317003531117,-12.9318908475344
2.03632059987443,-14.65637961792,-14.6565260251992
2.05664618690209,-16.3825201845051,-16.38261628824
2.07697177392974,-17.8387971768321,-17.8388403855159
2.09729736095739,-18.7204327714231,-18.7204241424011
2.11762294798504,-18.7404651997866,-18.7404089610041
2.13794853501269,-17.6810543337665,-17.6809570144348
2.15827412204034,-15.4359996105476,-15.4358689487399
2.17859970906799,-12.0372068033373,-12.0370506236933
2.19892529609564,-7.66058619034322,-7.66041143672904
2.21925088312329,-2.6102945289868,-2.61010659833072
2.23957647015094,2.71624892732826,2.71644646521892
2.2599020571786,7.877122253746,7.87732753771861
2.28022764420625,12.4409428485878,12.441155266173
2.3005532312339,16.0399265621831,16.0401460610783
2.32087881826155,18.413272344962,18.4134986620502
2.3412044052892,19.4349468971398,19.4351788574136
2.36152999231685,19.1225619413864,19.1227969586634
2.3818555793445,17.6270435914129,17.627277460357
2.40218116637215,15.2056857728416,15.2059127863134
2.4225067533998,12.1835002237644,12.1837135913175
2.44283234042745,8.90918547323731,8.90937796457115
2.46315792745511,5.71236585836848,5.71253055821331
2.48348351448276,2.86801565350426,2.86814669947703
2.50380910151041,0.572372920439395,0.572466105298376
2.52413468853806,-1.06751518208958,-1.0674620338078
2.54446027556571,-2.03079663890583,-2.030783570586
2.56478586259336,-2.36863876757672,-2.36866387114953
2.58511144962101,-2.18267071748826,-2.18273055182587
2.60543703664866,-1.60059740355746,-1.60068756804527
2.62576262367631,-0.753452660027462,-0.753568419448756
2.64608821070397,0.241885659660716,0.241748803210275
2.66641379773162,1.29269572589569,1.2925416020544
2.68673938475927,2.33237162227687,2.33220316233077
2.70706497178692,3.31540839947582,3.31522763075183
2.72739055881457,4.20776446587577,4.20757271436139
2.74771614584222,4.97569586045666,4.97549410898496
2.76804173286987,5.57625252498805,5.57604184920821
2.78836731989752,5.95209354225807,5.95187553714332
2.80869290692517,6.03224556164792,6.03202267749249
2.82901849395282,5.7391084445886,5.73888417051077
2.84934408098048,5.00065875121598,5.00043761232059
2.86966966800813,3.76566509192554,3.76545245975357
2.88999525503578,2.01901205544196,2.01881380245452
2.91032084206343,-0.205946946392019,-0.206124894898659
2.93064642909108,-2.82070007013133,-2.82085221911502
2.95097201611873,-5.68236742958726,-5.68248915971416
2.97129760314638,-8.60258321186319,-8.60267112295364
2.99162319017403,-11.3637571054967,-11.3638092151342
3.01194877720168,-13.7407845635837,-13.7408003456765
3.03227436422933,-15.5253647829399,-15.5253450567252
3.05259995125699,-16.5496266373833,-16.5495733379626
3.07292553828464,-16.7058219882257,-16.7057378653988
3.09325112531229,-15.9594019871588,-15.959290288218
3.11357671233994,-14.3537445721828,-14.3536087628147
3.13390229936759,-12.0059897147023,-12.0058332797085
3.15422788639524,-9.09467128013435,-9.09449762573462
3.17455347342289,-5.84092017095557,-5.84073262887773
3.19487906045054,-2.48579442804641,-2.48559634290983
3.21520464747819,0.733334060830624,0.733539194208643
3.23553023450585,3.60447235351011,3.60468074615966
3.2558558215335,5.95838215202681,5.95858961324416
3.27618140856115,7.6800119126129,7.68021381258777
3.2965069955888,8.71329218989485,8.71348351379884
3.31683258261645,9.05954237610301,9.05971787580739
3.3371581696441,8.77054179033276,8.77069622166555
3.35748375667175,7.93787524066364,7.93800365672763
3.3778093436994,6.68041096063319,6.68050902124056
3.39813493072705,5.13170135115428,5.13176560568121
3.4184605177547,3.42876104126521,3.42878915046126
3.43878610478236,1.70316001741019,1.70315088995808
3.45911169181001,0.0747823137508607,0.0747361389206218
3.47943727883766,-1.35194460308958,-1.35202643168775
3.49976286586531,-2.48995331785125,-2.49006837001948
3.52008845289296,-3.27038670135133,-3.27053173626078
3.54041403992061,-3.64320076479039,-3.64337198138989
3.56073962694826,-3.57812230053234,-3.57831558078556
3.58106521397591,-3.06622258654647,-3.06643370213915
3.60139080100356,-2.12197206324981,-2.12219682523966
3.62171638803121,-0.785277830818029,-0.785512172857885
3.64204197505887,0.877244740871263,0.877004744053174
3.66236756208652,2.77259763337334,2.77235579737033
3.68269314911417,4.78404684756392,4.78380693516593
3.70301873614182,6.77653037471489,6.77629615300285
3.72334432316947,8.60485531103398,8.6046305876766
3.74366991019712,10.1242418705658,10.1240304940094
3.76399549722477,11.2023265809893,11.2021323952297
3.78432108425242,11.7313950054201,11.7312217575115
3.80464667128008,11.639437972857,11.6392891824746
3.82497225830773,10.8986494526724,10.8985282618
3.84529784533538,9.53021124445756,9.53012026678312
3.86562343236303,7.60460952766304,7.60455071580461
3.88594901939068,5.23724406325506,5.23721861013734
3.90627460641833,2.57964827446956,2.57965656056857
3.92660019344598,-0.192841715974133,-0.192800125952563
3.94692578047364,-2.89572059247672,-2.89564690845309
3.96725136750129,-5.35075400212753,-5.35065013434404
3.98757695452894,-7.40067301853955,-7.40054148492383
4.00790254155659,-8.921704303305,-8.92154813429203
4.02822812858424,-9.83281343831054,-9.83263609342314
4.04855371561189,-10.1009482699948,-10.1007535763889
4.06887930263954,-9.74203021613379,-9.74182233179675
4.0892048896672,-8.81789047433329,-8.81767387204865
4.10953047669485,-7.42972857778405,-7.42950804382209
4.1298560637225,-5.7089418030549,-5.70872244190399
4.15018165075015,-3.80631478477819,-3.80610201547434
4.1705072377778,-1.88056996011309,-1.88036948744443
4.19083282480545,-0.0871807994073687,-0.0869985478289863
4.2111584118331,1.43182545704095,1.43198345123008
4.23148399886076,2.55656066306727,2.55668839952705
4.25180958588841,3.19615870926151,3.1962504059037
4.27213517291606,3.29371849571749,3.29376879659669
4.29246075994371,2.82929933556658,2.82930353183664
4.31278634697136,1.82102586998097,1.82098011849114
4.33311193399901,0.324375362491293,0.324276883981484
4.35343752102666,-1.57029363999045,-1.57044639988988
4.37376310805432,-3.74193127730197,-3.74213853376483
4.39408869508197,-6.04466491857796,-6.04492548096522
4.41441428210962,-8.31526880067209,-8.31558005201116
4.43473986913727,-10.382074077937,-10.3824320007556
4.45506545616492,-12.0750330726967,-12.075432319919
4.47539104319257,-13.2364987078321,-13.2369327112235
4.49571663022022,-13.7321240731872,-13.7325851778426
4.51604221724788,-13.4611566441718,-13.4616362610964
4.53636780427553,-12.3653252047085,-12.3658139808012
4.55669339130318,-10.4355177325466,-10.4360057399991
4.57701897833083,-7.71553811827482,-7.71601506285961
4.59734456535848,-4.30240872193648,-4.3028641679352
4.61767015238613,-0.342941316463819,-0.343364927540065
4.63799573941378,3.97339387477029,3.97301207811782
4.65832132644144,8.42494568492535,8.4246150532637
4.67864691346909,12.7710433167684,12.7707722914481
4.69897250049674,16.7669248712171,16.7667207062676
4.71929808752439,20.1793450410593,20.1792135405587
4.73962367455204,22.8017035383853,22.8016488231012
4.75994926157969,24.4675728050644,24.467597121611
4.78027484860734,25.0616414285952,25.0617450120963
4.800600435635,24.5273106782825,24.5274916774929
4.82092602266265,22.8704595728266,22.8707140452889
4.8412516096903,20.159198336625,20.1595203174393
4.86157719671795,16.519730212299,16.5201118528048
4.8819027837456,12.1287102167585,12.1291419841211
4.90222837077325,7.20270600984767,7.20317693733469
4.9225539578009,1.98551833511684,1.98601631351295
4.94287954482856,-3.26579717311183,-3.26528507243251
4.96320513185621,-8.2953447088917,-8.29483189159024
4.98353071888386,-12.8624115897373,-12.86191159096
5.00385630591151,-16.7543481445757,-16.7538742877706
5.02418189293916,-19.7976567877779,-19.7972218566246
5.04450747996681,-21.8667644888107,-21.8663804167183
5.06483306699447,-22.8900829850738,-22.8897605693383
5.08515865402212,-22.8530947790919,-22.8528434285671
5.10548424104977,-21.7983383708388,-21.7981658923784
5.12580982807742,-19.8223034539319,-19.8222158795408
5.14613541510507,-17.0693865598928,-17.069388017741
5.16646100213272,-13.7231993279117,-13.7232919626799
5.18678658916037,-9.9956622246211,-9.99584617175196
5.20711217618803,-6.11445003671863,-6.11472345178414
5.22743776321568,-2.30947269449092,-2.30983183611324
5.24776335024333,1.20083528650725,1.20039592318276
5.26808893727098,4.22259308117097,4.22208058670971
5.28841452429863,6.59809540551725,6.59751824219554
5.30874011132628,8.21521048607585,8.21457824454258
5.32906569835393,9.01390286078698,9.01322599703201
5.34939128538158,8.98940170685312,8.98869127459945
5.36971687240924,8.19175325651357,8.19102064984771
5.39004245943689,6.72174402892295,6.72100074431132
5.41036804646454,4.72344030506702,4.72269772828908
5.43069363349219,2.37383662100083,2.37310584520538
5.45101922051984,-0.12967954922577,-0.130387867637204
5.47134480754749,-2.58317723543928,-2.5838529803495
5.49167039457515,-4.79037939943689,-4.79101306424399
5.5119959816028,-6.57621977800653,-6.57680251012175
5.53232156863045,-7.79882316952731,-7.79934679450614
5.5526471556581,-8.35909503408046,-8.35955206272589
5.57297274268575,-8.20728569822451,-8.20766932578814
5.5932983297134,-7.34611540438255,-7.34641951389653
5.61362391674105,-5.83029032620132,-5.83050950163399
5.63394950376871,-3.76248730980938,-3.76261686357644
5.65427509079636,-1.28611859677184,-1.28615461839108
5.67460067782401,1.42460809217905,1.42466866483397
5.69492626485166,4.1766556220101,4.17681491219847
5.71525185187931,6.77135665726799,6.77161574161342
5.73557743890696,9.01799075724643,9.01834954083463
5.75590302593461,10.7468742201099,10.747331300337
5.77622861296227,11.8211374700578,11.8216899949313
5.79655419998992,12.1464497919006,12.1470933167187
5.81687978701757,11.6780752260679,11.6788035796213
5.83720537404522,10.4247994871958,10.4256046611291
5.85753096107287,8.44944823980477,8.45032030754376
5.87785654810052,5.865913772088,5.86684084057953
5.89818213512817,2.83281129668739,2.83377950279076
5.91850772215583,-0.455911624029367,-0.454918059467448
5.93883330918348,-3.7828987658594,-3.78189742250893
5.95915889621113,-6.92116055284513,-6.92017063081723
5.97948448323878,-9.64888480189706,-9.64792687044561
5.99981007026643,-11.7643749063048,-11.7634705796633
6.02013565729408,-13.1001669268359,-13.099338474271
6.04046124432173,-13.5353937464475,-13.5346636419964
6.06078683134939,-13.0055403959823,-13.0049313911526
6.08111241837704,-11.5088686145228,-11.5084065845738
6.10143800540469,-9.10898305496132,-9.10870006163895
6.12705601170107,-5.00735648852159,-5.00734564840954
6.15267401799746,-0.0751810384567085,-0.0754708361036941
6.17829202429385,5.19272131585624,5.19214007021541
6.20391003059023,10.240881352098,10.2400450341785
6.22952803688662,14.5052683406694,14.5042165912389
6.255146043183,17.4695783619274,17.4683377473429
6.28076404947939,18.7186944000633,18.7172841216602
6.30638205577578,17.9841622281896,17.9826213137611
6.33200006207216,15.1775273318948,15.1759370805766
6.35761806836855,10.4083183474465,10.406792145891
6.38323607466493,3.98459612205658,3.98324116613042
6.40885408096132,-3.60464804884155,-3.60576707262172
6.4344720872577,-11.7244590923896,-11.7253318060258
6.46009009355409,-19.6439603724989,-19.6446189470031
6.48570809985048,-26.5977931760605,-26.5982903787111
6.51132610614686,-31.8540963096738,-31.8544835492409
