"Time [ns]","V(AM_SI) [mV]","V(SI) [mV]"
0,1.27159714360539E-12,0
0.000157635511662479,-0.0764714025893834,-0.0764715091393771
0.000315271023324959,-0.153039694150291,-0.153039907531838
0.000630542046649918,-0.30636574543785,-0.306366173042119
0.00106882453238954,-0.520126847580998,-0.520127574825814
0.00150710701812916,-0.73456033105681,-0.734561360020867
0.00240704631856642,-1.1767608632183,-1.17676259803654
0.00425492016893208,-2.0912351222624,-2.09124479393933
0.00610279401929775,-3.01202131405578,-3.01204029523969
0.00892440095474435,-4.42241307188108,-4.42244546363225
0.011746007890191,-5.8288856919284,-5.82892652818178
0.0145676148256376,-7.22057299681847,-7.22061632721107
0.0173892217610842,-8.5869719924446,-8.58701340928628
0.0208893507393707,-10.2311893700481,-10.2312285460848
0.0243894797176572,-11.8027237472993,-11.8027579276548
0.0278896086959437,-13.2843907410168,-13.2844178876651
0.0313897376742302,-14.6602243969367,-14.6602481722247
0.0348898666525167,-15.9155657537138,-15.9155907279833
0.0383899956308032,-17.0371304289903,-17.0371589600204
0.0418901246090897,-18.0130640545239,-18.0130972193476
0.0453902535873762,-18.8329927718839,-18.8330303376502
0.0488903825656627,-19.4880621537501,-19.4881030850102
0.0523905115439492,-19.970968998918,-19.9710094844898
0.0567909030892361,-20.3249867327981,-20.3250139695329
0.0611912946345231,-20.3903222054612,-20.3903252049774
0.0674694683574549,-19.9773672569159,-19.9773478326613
0.0737476420803867,-18.9728531010959,-18.9728425522122
0.0824255746481389,-16.6506959522398,-16.6507140204097
0.091103507215891,-13.3294077748783,-13.3294443796611
0.09860145589262,-9.75680473331905,-9.75686018476131
0.109066677720584,-3.92879539698109,-3.92890161039791
0.116526475740213,0.665036038646514,0.664885842495913
0.124075837906339,5.50732960972171,5.50714345797593
0.134571919808647,12.2448827565614,12.2446716343257
0.142388481444875,17.0606289026503,17.0604135431204
0.153814720107388,23.3552115246725,23.3549939794164
0.161937628239185,27.083535878927,27.0833154594684
0.174919310556237,31.2882975513479,31.2880781789322
0.183268505443761,32.6958528707973,32.695640007069
0.197651379203547,32.4470669306853,32.4468739504583
0.206889058442422,30.4666941830251,30.4665239930741
0.222802493943213,23.9000954892994,23.8999955903469
0.232802493943213,17.9310701497816,17.9310295918654
0.250029153463736,5.27768419382545,5.27774519320584
0.260029153463736,-3.00561954358342,-3.00550673506891
0.272705749114712,-13.7220372256438,-13.7218718387272
0.28214253694231,-21.4655753284034,-21.465381059905
0.298398970029656,-33.2146925828072,-33.2144645176308
0.308022058989932,-38.8173905827449,-38.8171499104112
0.324599426695372,-45.1230385318727,-45.1227916822254
0.334599426695372,-46.6243921105966,-46.6241549146518
0.350182943121604,-45.181605422824,-45.1814088884812
0.365766459547836,-39.2097818001567,-39.2096521246251
0.381349975974068,-29.1778462065546,-29.1777951100375
0.396933492400301,-15.9614998132357,-15.9615234120308
0.406933492400301,-6.3022851962791,-6.30235002334867
0.419858376321698,6.78966375940084,6.78955557737304
0.429858376321698,16.9469815720981,16.9468473182672
0.442316701019364,28.959590070619,28.959433170661
0.454775025717029,39.6394004852404,39.6392343285189
0.467233350414695,48.3817136576013,48.3815548974932
0.47969167511236,54.7067875871985,54.7066550747903
0.494884304276403,58.6873336238587,58.6872571081935
0.514332526105587,57.5503517180521,57.5503724776075
0.53378074793477,49.8435348883177,49.8436622613376
0.54378074793477,43.6431869444641,43.6433671681818
0.561007407455293,30.4767472428523,30.4770083470614
0.571007407455293,21.8024890822445,21.8027898011803
0.588234066975817,6.41462454543511,6.41497442037419
0.598234066975816,-2.33157861625885,-2.33121369958877
0.61546072649634,-15.844478876095,-15.8441162173947
0.62546072649634,-22.4375203760088,-22.4371757966678
0.642687386016863,-30.8417603028804,-30.8414722927471
0.652687386016863,-33.843786840471,-33.8435440159185
0.669914045537387,-35.6033452222506,-35.6031928957683
0.68714070505791,-33.2758114054599,-33.2757575945454
0.704367364578433,-27.4926403946877,-27.4926838131519
0.721594024098957,-19.23284676882,-19.2329770581498
0.731594024098957,-13.7274109844889,-13.7275837526592
0.74882068361948,-4.00664017497073,-4.00686535886815
0.75882068361948,1.44484087542557,1.44459866898565
0.776047343140003,9.65541695563023,9.65516899675035
0.786047343140003,13.4995050447287,13.4992664690933
0.803274002660527,18.0496003921838,18.0493951701837
0.82050066218105,19.7817365156698,19.7815808045798
0.842474887019882,18.0494774201619,18.0493952432307
0.864449111858715,12.7164959226035,12.7164832125657
0.874449111858715,9.41835477171691,9.41836824228408
0.891675771379238,3.18180761066834,3.18185084054884
0.901675771379238,-0.534594108077245,-0.534543823633294
0.918902430899761,-6.49359637796457,-6.49355272009937
0.936129090420285,-11.4051696015379,-11.4051548150139
0.957041803632389,-15.3583867002167,-15.3584304321105
0.977954516844493,-16.9006114053811,-16.900729837979
0.998867230056597,-16.2895156955417,-16.2897121644487
1.0197799432687,-14.2071210879127,-14.207384730576
1.0297799432687,-12.9229983029319,-12.923286825367
1.04700660278922,-10.7678315279236,-10.7681464088984
1.06423326230975,-9.07345981742231,-9.07377821005226
1.08145992183027,-8.23050594113379,-8.23080508697652
1.10297348126229,-8.67532473348646,-8.67557143134938
1.12448704069431,-10.7038875004507,-10.7040578233117
1.14600060012633,-13.8121412084326,-13.8122228702851
1.16751415955835,-17.1412891664465,-17.1412830675142
1.18902771899037,-19.6673605882916,-19.6672798390656
1.21054127842239,-20.4246981748676,-20.4245642880366
1.23205483785441,-18.7169324938397,-18.7167702640758
1.25356839728643,-14.2731500824041,-14.2729828816219
1.27508195671845,-7.31925492337592,-7.31910082108253
1.29659551615047,1.44781794364547,1.4479491888526
1.30659551615047,5.89539807566807,5.89551775000006
1.32382217567099,13.5503330687065,13.550435877326
1.34104883519152,20.6832014965888,20.6832945132584
1.35827549471204,26.6861520360083,26.6862448366236
1.37550215423256,31.0601875890501,31.0602907346554
1.39631894543242,33.7058334716444,33.7059621739012
1.41713573663229,33.3019767177058,33.3021414657629
1.43795252783215,30.0606855237394,30.0608904479085
1.45876931903201,24.5677528174467,24.5679944808717
1.47958611023188,17.6749420676656,17.6752096872631
1.48958611023188,14.119465531962,14.119740266457
1.5068127697524,8.11715415238663,8.11743064708408
1.52403942927292,2.66057159545933,2.66083593728278
1.54126608879345,-1.84088597095711,-1.84064713304669
1.56254307404181,-5.68670418013066,-5.68651261932656
1.58382005929017,-7.50179407479488,-7.50166218806555
1.60509704453852,-7.43910013447244,-7.4390333842843
1.62637402978688,-5.92635521342411,-5.92635201421389
1.64765101503524,-3.55995386206267,-3.56000659230531
1.6689280002836,-0.981070544506498,-0.981167525638203
1.69020498553196,1.24183283143103,1.24170479507128
1.71148197078032,2.70316446984056,2.70301764421385
1.73275895602868,3.20898023463352,3.20882398294484
1.75403594127704,2.77938105989814,2.77922057656567
1.7753129265254,1.60885460367323,1.60869061899136
1.79658991177376,-0.00331153769222317,-0.00348200366403456
1.81786689702212,-1.73553501463179,-1.73571711772493
1.83914388227048,-3.32114191057226,-3.32134106483163
1.86042086751884,-4.60450884369859,-4.60472883330637
1.8816978527672,-5.56580966146801,-5.56605110207166
1.90297483801556,-6.31118081319594,-6.31144024710273
1.92425182326392,-7.03248928637468,-7.03275909069471
1.94552880851228,-7.94701639386601,-7.94728552941092
1.96680579376064,-9.23111817250639,-9.23137357812251
1.99238301751457,-11.3592076442633,-11.359429077049
2.0179602412685,-13.9900382347002,-13.9902094851775
2.04353746502243,-16.7209643468321,-16.7210748528712
2.06911468877636,-18.9488716881789,-18.9489178604915
2.09469191253029,-20.0136886712606,-20.0136737332148
2.12026913628422,-19.368922581318,-19.3688548957931
2.13026913628422,-18.5725059180377,-18.5724204037256
2.14749579580475,-16.4639964368873,-16.4638845544779
2.16890148648705,-12.6454638131749,-12.6453261781079
2.19030717716935,-7.75137519885269,-7.75121800722588
2.21171286785165,-2.19893523751769,-2.19876270651422
2.23311855853396,3.50097551249547,3.50116116003349
2.25452424921626,8.81563466342039,8.81583269921098
2.27592993989856,13.264290741674,13.2645011060036
2.29733563058086,16.4817306861824,16.4819531488236
2.32326395619816,18.4463230729212,18.4465582448867
2.34919228181546,18.309885986487,18.310128811187
2.37512060743276,16.3866054684325,16.3868474381051
2.40104893305006,13.229209387793,13.2294393533487
2.42697725866736,9.4951476388046,9.4953534027525
2.45290558428466,5.81023437542513,5.81040464279667
2.47883390990196,2.6611793755513,2.66130556726461
2.50476223551926,0.337394218963129,0.33747165962631
2.53069056113656,-1.07263598506526,-1.07260771811762
2.55661888675386,-1.63985589423687,-1.6398735250724
2.58254721237116,-1.5278903644072,-1.5279481930752
2.60847553798846,-0.924626243423695,-0.92471772387174
2.63440386360576,0.00765442400561269,0.0075352787974541
2.66033218922306,1.15216676791152,1.15202447719239
2.68626051484036,2.42731439831005,2.42715179156158
2.71218884045766,3.75607747873697,3.75589616073935
2.73811716607496,5.03114492381447,5.03094624820002
2.76404549169226,6.0924579735859,6.09224416703781
2.78997381730956,6.72906723284164,6.72884231516689
2.81590214292686,6.70875291665269,6.70852313816144
2.84183046854416,5.82939667354602,5.8291703544088
2.86775879416146,3.97846964817148,3.97825643977554
2.87775879416146,2.99434940059321,2.99414387961082
2.89498545368198,0.992510598638618,0.992321789396374
2.91703819607208,-2.02821153289873,-2.02837325455811
2.93909093846218,-5.36694204295035,-5.36707159150858
2.96114368085229,-8.74561393771812,-8.74570787307636
2.98319642324239,-11.8559932091782,-11.8560498238256
3.00524916563249,-14.397507042649,-14.3975261790959
3.02730190802259,-16.1155208730405,-16.1155036634418
3.0493546504127,-16.834029821489,-16.8339784278185
3.0714073928028,-16.4777358910817,-16.477653107937
3.0934601351929,-15.0803506598238,-15.080239495152
3.115512877583,-12.7783131467571,-12.7781766456719
3.13756561997311,-9.79148976600703,-9.79133104217498
3.15961836236321,-6.39439305788664,-6.39421541081658
3.18167110475331,-2.88268834394768,-2.88249539889099
3.20372384714342,0.459917143916635,0.460121248752931
3.22577658953352,3.38987638423322,3.39008681262169
3.24782933192362,5.72385081008372,5.72406194817937
3.26988207431372,7.34905186131462,7.34925743010403
3.29193481670382,8.22407252100298,8.22426583792581
3.31398755909393,8.37187930251661,8.37205364246313
3.33604030148403,7.86758648646321,7.86773549533657
3.35809304387413,6.82394392628258,6.82406206308729
3.38014578626424,5.37715952568852,5.37724244940566
3.40219852865434,3.67489411369019,3.67493894883396
3.42425127104444,1.86724102191538,1.86724645797672
3.44630401343454,0.100494834980646,0.100461086085741
3.47373623961951,-1.83254252608883,-1.83262267113586
3.50116846580448,-3.24938651273297,-3.24950864139725
3.52860069198945,-3.95480473007605,-3.95496318032648
3.55603291817442,-3.81957645806783,-3.81976493988613
3.58346514435938,-2.80113470430583,-2.80134667576808
3.61089737054435,-0.961253574560278,-0.961482373258852
3.63832959672932,1.52577609222611,1.52553726893942
3.66576182291429,4.38065157992851,4.38040976473791
3.69319404909926,7.24562521821913,7.24538776849284
3.72062627528422,9.72904575340011,9.72882032817734
3.74805850146919,11.4619184858295,11.4617128042908
3.77549072765416,12.1567057280421,12.1565271717231
3.80292295383913,11.6569744168439,11.6568295587285
3.8303551800241,9.9676284727258,9.96752262076284
3.85778740620906,7.25910820851906,7.25904503778238
3.88521963239403,3.84418298433577,3.84416434944759
3.912651858579,0.131488970528633,0.131514909880158
3.94008408476397,-3.43556848544376,-3.43549959290445
3.96751631094893,-6.44351540940313,-6.44340662268133
3.9949485371339,-8.56613184182845,-8.56598743585898
4.02238076331887,-9.60569301107255,-9.60551832890836
4.04981298950384,-9.51316501833025,-9.5129664223471
4.05981298950384,-9.21202716469915,-9.21182164404985
4.07703964902436,-8.39071187022961,-8.39049685376439
4.10036310542352,-6.77526607205922,-6.77504357127619
4.12368656182267,-4.75964958027415,-4.7594264709528
4.14701001822183,-2.56952146931415,-2.5693052873019
4.17033347462099,-0.440564769621113,-0.44036355992467
4.19365693102014,1.40177558852444,1.4019535114671
4.2169803874193,2.76067927916423,2.7608256119707
4.24030384381846,3.48352794932937,3.48363465040376
4.26362730021762,3.47405950140398,3.47411915731689
4.28695075661677,2.70067243681499,2.70067869297226
4.31027421301593,1.20052357355709,1.20047147846208
4.33359766941509,-0.920923712760248,-0.921037460162964
4.35692112581424,-3.49520386772916,-3.49538070620035
4.3802445822134,-6.30116734306273,-6.30140668604449
4.40356803861256,-9.08018276582274,-9.08048192530687
4.42689149501171,-11.5556516654141,-11.5560058809875
4.45021495141087,-13.4557206957418,-13.456123222313
4.47353840781003,-14.5375203235533,-14.5379625608458
4.49686186420919,-14.6108028514341,-14.611274518712
4.52018532060834,-13.5586052622731,-13.5590946400491
4.5435087770075,-11.3526046379946,-11.353098863962
4.56683223340666,-8.06119897629922,-8.06168439345252
4.59015568980581,-3.84901052120677,-3.84947307212486
4.61347914620497,1.03260627079598,1.03218058882244
4.64184946518144,7.38411453084323,7.38375167716173
4.67021978415791,13.5977408309592,13.5974585887108
4.69859010313438,19.0059329502192,19.0057458382807
4.72696042211086,23.0023128899789,23.002231263532
4.75533074108733,25.1166312915533,25.1166605387024
4.7837010600638,25.0730988484057,25.0732388837078
4.81207137904027,22.8244668345412,22.8247119178142
4.82207137904027,21.5197171810401,21.5199970067593
4.83929803856079,18.7238101300416,18.7241457536365
4.86327107774654,13.8618405451911,13.8622436842333
4.88724411693229,8.16508743360815,8.1655438605933
4.91121715611804,2.0291476747894,2.02964127534713
4.93519019530378,-4.1235611907335,-4.12304815865455
4.95916323448953,-9.87632303931059,-9.87580945588178
4.98313627367528,-14.8493082999482,-14.8488129580715
5.00710931286103,-18.7272707257439,-18.7268116796558
5.03108235204678,-21.2819638450458,-21.2815582803574
5.05505539123252,-22.3878667200661,-22.3875303762639
5.07902843041827,-22.030205305878,-22.0299516251554
5.10300146960402,-20.3046846786966,-20.3045243312033
5.12697450878977,-17.408827535265,-17.4087683245881
5.15094754797552,-13.6253569500518,-13.6254036555607
5.17492058716126,-9.29865832792279,-9.29881241403109
5.19889362634701,-4.80597021559766,-4.80622977400078
5.22286666553276,-0.52552050214013,-0.525880521250185
5.24683970471851,3.19574099780178,3.19528828275563
5.27081274390426,6.07194441510795,6.07140923146431
5.29478578309,7.90283022480526,7.90222488404471
5.31875882227575,8.59057748406121,8.58991583970061
5.3427318614615,8.14717241993085,8.14646929590914
5.36670490064725,6.69146881607166,6.69073955372283
5.390677939833,4.43613374704685,4.43539382478237
5.41465097901874,1.6657204002697,1.66498506060643
5.43862401820449,-1.29196637968665,-1.29268245420681
5.46259705739024,-4.09836055451744,-4.0990434290697
5.48657009657599,-6.43726273680974,-6.43789931137163
5.51054313576174,-8.04537306214355,-8.04595113352754
5.53451617494748,-8.73732384816628,-8.73783216750733
5.55848921413323,-8.42292008596774,-8.42334837040126
5.58246225331898,-7.11511039974512,-7.11544932779514
5.60643529250473,-4.92812748617401,-4.92836872830458
5.63040833169048,-2.06615552611937,-2.0662918339194
5.65438137087622,1.19628383516819,1.19625850550078
5.67835441006197,4.54035101461878,4.54044133577088
5.70232744924772,7.63294415086887,7.63315320960375
5.72630048843347,10.1581381707766,10.1584671992165
5.75027352761922,11.8472827337483,11.8477308145819
5.77424656680496,12.5051641459343,12.5057279046752
5.79821960599071,12.0299500613262,12.030623362332
5.82219264517646,10.425112309355,10.4258859677689
5.84616568436221,7.80213694426627,7.80299850009193
5.87013872354796,4.37355030453861,4.37448387887669
5.8941117627337,0.43657527479117,0.437561534807389
5.91808480191945,-3.65146727244592,-3.65045101683722
5.9420578411052,-7.50414135015787,-7.50312088861846
5.96603088029095,-10.7407495084644,-10.7397533128733
5.9900039194767,-13.0220809547142,-13.0211395835924
6.01397695866244,-14.0838544285547,-14.0829997645382
6.03794999784819,-13.7647138759062,-13.7639782145357
6.06192303703394,-12.0259876057216,-12.0254045306602
6.08589607621969,-8.96105811331323,-8.96066843050208
6.10986911540544,-4.79307270893467,-4.79292668814068
6.13384215459118,0.139251528687618,0.139112791945465
6.15781519377693,5.40692563477689,5.40649724955262
6.18178823296268,10.5252386918152,10.524551680547
6.20576127214843,14.9947580740931,14.9938515382683
6.22973431133418,18.3453236066606,18.3442245663604
6.25370735051992,20.1792821984997,20.1780071248298
6.27768038970567,20.2101948602774,20.2087603360876
6.30165342889142,18.2935238740528,18.2919647187765
6.32562646807717,14.4464375450835,14.4448275255875
6.33562646807717,12.2980072918534,12.29640572701
6.35285312759769,7.95057263769454,7.94903587291371
6.37007978711821,2.90596323360713,2.90454226285382
6.39133484093246,-3.99141690228388,-3.99265236504017
6.41258989474671,-11.2610869612589,-11.2621192644303
6.43384494856095,-18.4509165648156,-18.4517530983452
6.4551000023752,-25.0878052163867,-25.088471494659
6.47635505618944,-30.7067173807569,-30.7072513074014
6.48635505618944,-32.8830811619909,-32.8835669123233
6.50358171570997,-35.7526760949567,-35.7530980789293
6.52080837523049,-37.3736189286253,-37.3739916848443
6.53803503475101,-37.6126145941982,-37.6129400882943
6.55526169427154,-36.3862831797674,-36.3865524983316
6.57248835379206,-33.6664294058567,-33.6666252290454
6.58971501331258,-29.4832835025065,-29.4833832075987
6.6069416728331,-23.9265213483198,-23.9264998632285
6.62416833235363,-17.1439529639357,-17.1437852794758
6.64139499187415,-9.33785891540846,-9.33752300769312
6.65862165139467,-0.759050571003467,-0.758530701760274
6.67584831091519,8.30117448861818,8.30188525817958
6.69669406423848,19.4265592124189,19.4274956471634
6.71753981756176,30.180386890598,30.1815276689144
6.73838557088504,39.9525092051143,39.9538182987434
6.75923132420833,48.1575234479644,48.1589537241276
6.78007707753161,54.2682544577376,54.2697511220273
6.8009228308549,57.8471342876307,57.8486387425037
6.82176858417818,58.5736031014758,58.5750589043697
6.84261433750146,56.2658475793123,56.2672071436082
6.86346009082475,50.8954938772698,50.8967218104646
6.88430584414803,42.594260567295,42.5953326179901
6.90515159747131,31.6520369002583,31.6529373168448
6.9259973507946,18.5063514139061,18.5070712679144
6.94684310411788,3.72369524081987,3.72423170152111
6.96768885744116,-12.0263707414934,-12.0260155807665
6.98853461076445,-28.0029919287276,-28.0028132402853
7.00938036408773,-43.4300237475528,-43.4300163504637
7.03022611741101,-57.534383021858,-57.5345427766703
7.0510718707343,-69.5847502746632,-69.5850740492049
7.07191762405758,-78.9286206066106,-78.9291053481362
7.09276337738087,-85.0258015838938,-85.0264432772291
7.11360913070415,-87.4766531891572,-87.4774460496174
7.13445488402743,-86.0436432862508,-86.0445790208261
7.15530063735072,-80.6651360373284,-80.6662029793338
7.176146390674,-71.4607230079427,-71.461905270124
7.19699214399728,-58.7278286437378,-58.729105713805
7.21783789732057,-42.9297538579107,-42.9311008920539
7.24300931102935,-20.6759298029988,-20.677323417411
7.26818072473813,3.84609702978348,3.84470184667858
7.29335213844691,29.1768517862766,29.1755024218889
7.30335213844691,39.1618601650895,39.1605430655879
7.32057879796743,55.7913541890797,55.7901088724907
7.34182909320357,74.7184454152422,74.7173147978441
7.3630793884397,91.1439266930213,91.1429376571846
7.38432968367583,104.343087108293,104.342261738792
7.40557997891197,113.729347582146,113.728703122874
7.4268302741481,118.879896077175,118.879446071746
