"Time [ns]","V(FET_in) [mV]"
0,-2.66852925301647E-07
0.000198988724224471,-2.66852925301655E-07
0.000397977448448942,-2.66852925301657E-07
0.000795954896897884,-2.66852925301666E-07
0.00149578883233614,-2.66852925301709E-07
0.00242521341415154,-2.66852925301753E-07
0.00363017352315713,-2.66852925301839E-07
0.00532796493122024,-2.66852925301946E-07
0.00743464638916713,-3.91848221945931E-06
0.00954132784711401,-0.000194838072886128
0.0116480093050609,-0.00144387169232354
0.0137546907630078,-0.00520190965127677
0.0163767950274207,-0.0153085751858093
0.0189988992918336,-0.0302233702053799
0.0216210035562465,-0.0445676138778667
0.0242431078206593,-0.051790479562159
0.0268652120850722,-0.0491159688109939
0.0294873163494851,-0.0392027005327714
0.032109420613898,-0.026627559006422
0.0347315248783109,-0.0128727684437917
0.0373536291427238,0.00583584727186673
0.0399757334071367,0.0351456786670277
0.0425978376715496,0.0773805451592475
0.0452199419359625,0.129260361780657
0.0478420462003754,0.18443674528021
0.0504641504647882,0.238093963146545
0.0530862547292011,0.288761723330612
0.055708358993614,0.336349423854255
0.0588917533256058,0.38719002075953
0.0620751476575976,0.424746876200184
0.0652585419895893,0.445543449915973
0.0691701042340445,0.451500858096603
0.0730816664784997,0.441601904736668
0.0769932287229549,0.417463065134002
0.0819373229318087,0.370473994683752
0.0868814171406626,0.326402076432264
0.0918255113495165,0.312568884204395
0.0967696055583704,0.34153677800252
0.101713699767224,0.411318372453174
0.106657793976078,0.511974763157765
0.112612614032976,0.651270183645615
0.118567434089873,0.782643799177966
0.124522254146771,0.879368656450616
0.130477074203668,0.926773552561306
0.136431894260566,0.928778363166543
0.142386714317463,0.900565190575598
0.148341534374361,0.858194412170167
0.154296354431258,0.813810835226806
0.160251174488156,0.774575033969432
0.16801503642597,0.736375452511239
0.175778898363784,0.714343579691171
0.183542760301598,0.707854307411771
0.191306622239412,0.714334904191785
0.199070484177226,0.726548393775757
0.208506034266176,0.726410365243739
0.217941584355126,0.682786480637155
0.227377134444075,0.584308298507274
0.236812684533025,0.448871520387028
0.246248234621974,0.314713221295298
0.257741704134732,0.201544077436298
0.269235173647489,0.151566009099846
0.280728643160247,0.135248770223397
0.292222112673004,0.116387027976351
0.303715582185761,0.0792609792743867
0.315209051698519,0.0301627370826938
0.326702521211276,-0.0165835070150521
0.338195990724034,-0.0493601599944501
0.349689460236791,-0.0611416432927328
0.361182929749548,-0.0493159238378398
0.372676399262306,-0.0186072271134918
0.386472264590226,0.0217272028970512
0.400268129918146,0.0387738819511855
0.414063995246066,0.0190904990441664
0.427859860573985,-0.0283294985059886
0.441655725901905,-0.0840832000151512
0.455451591229825,-0.137070616480128
0.469247456557745,-0.192253136592125
0.483043321885665,-0.26322873421174
0.496839187213585,-0.358950554315593
0.510635052541505,-0.475874764856903
0.524430917869425,-0.599611246418038
0.538226783197345,-0.712955736267176
0.552022648525265,-0.804386250659444
0.565818513853185,-0.871969458347385
0.579614379181104,-0.92075251963043
0.593410244509024,-0.955976093550921
0.607206109836944,-0.977418438072301
0.621001975164864,-0.979222389563943
0.637924117273889,-0.945851918680192
0.654846259382913,-0.874866999192323
0.671768401491938,-0.779573228047753
0.688690543600962,-0.676792978743107
0.705612685709987,-0.577494719458331
0.722534827819012,-0.484542087441772
0.739456969928036,-0.397363983966976
0.756379112037061,-0.317430577473868
0.773301254146085,-0.24916571253411
0.79022339625511,-0.196193814582751
0.807145538364134,-0.157181446379134
0.824067680473159,-0.125371434223893
0.840989822582184,-0.0920734677717145
0.857911964691208,-0.0508457709176079
0.874834106800233,0.00095689949048754
0.891756248909257,0.0636644984126103
0.908678391018282,0.137460376824213
0.925600533127306,0.22283604899036
0.942522675236331,0.319118985004643
0.959444817345356,0.422857063271711
0.976366959454381,0.527828794910693
0.993289101563405,0.626783606993765
1.01021124367243,0.713505025465443
1.02713338578145,0.783769017833017
1.04405552789048,0.834988723395003
1.0609776699995,0.865474025773193
1.07789981210853,0.87428570836758
1.09482195421755,0.86179327785284
1.11174409632658,0.830228042575505
1.1286662384356,0.783513128097834
1.14558838054463,0.726332030597495
1.16251052265365,0.663035586096612
1.17943266476268,0.59701402581582
1.1963548068717,0.530659862886774
1.21327694898073,0.465563658653633
1.23019909108975,0.402545112408019
1.24712123319878,0.34146819561726
1.2640433753078,0.281120183399268
1.28096551741683,0.219435975927944
1.29788765952585,0.154065975030182
1.31480980163488,0.0830180867473488
1.3317319437439,0.00508913385461316
1.34865408585293,-0.0799922036316299
1.36557622796195,-0.171582157525301
1.3859018149896,-0.287765944485232
1.40622740201725,-0.406497933738569
1.4265529890449,-0.522046153360442
1.44687857607255,-0.62783230192338
1.46720416310021,-0.71747230498525
1.48752975012786,-0.785826544753886
1.50785533715551,-0.829627807131078
1.52818092418316,-0.847664004299193
1.54850651121081,-0.840731498820561
1.56883209823846,-0.811451351039506
1.58915768526611,-0.76387139049691
1.60948327229376,-0.702810201582367
1.62980885932141,-0.633071135959208
1.65013444634906,-0.558749613488189
1.67046003337672,-0.482792642047836
1.69078562040437,-0.406838406068268
1.71111120743202,-0.331285283640181
1.73143679445967,-0.255540388245507
1.75176238148732,-0.178418524022302
1.77208796851497,-0.0986455987815386
1.79241355554262,-0.01537336543551
1.81273914257027,0.0714123138143529
1.83306472959792,0.160677507260527
1.85339031662557,0.250345045524826
1.87371590365323,0.337490431104843
1.89404149068088,0.418679947415775
1.91436707770853,0.490397560757244
1.93469266473618,0.549498335154882
1.95501825176383,0.593613974944447
1.97534383879148,0.621437661538121
1.99566942581913,0.632840301258686
2.01599501284678,0.628809279049804
2.03632059987443,0.611235589203737
2.05664618690209,0.582595634820988
2.07697177392974,0.545582692693127
2.09729736095739,0.502746359883236
2.11762294798504,0.456196821378718
2.13794853501269,0.407420078561626
2.15827412204034,0.3572285811157
2.17859970906799,0.305844227386777
2.19892529609564,0.253086168239065
2.21925088312329,0.198620122178025
2.23957647015094,0.142219604434592
2.2599020571786,0.0839907057391937
2.28022764420625,0.0245197906209037
2.3005532312339,-0.0350823237104187
2.32087881826155,-0.0932467985842666
2.3412044052892,-0.148110182757674
2.36152999231685,-0.197743891024751
2.3818555793445,-0.240408585617252
2.40218116637215,-0.274789616786019
2.4225067533998,-0.300174338986836
2.44283234042745,-0.316542579910322
2.46315792745511,-0.324556313165246
2.48348351448276,-0.325451579842437
2.50380910151041,-0.320851942580973
2.52413468853806,-0.312535067672065
2.54446027556571,-0.302190244832348
2.56478586259336,-0.291204187223229
2.58511144962101,-0.280506044840384
2.60543703664866,-0.27049169068989
2.62576262367631,-0.261033870951864
2.64608821070397,-0.251570918019881
2.66641379773162,-0.241254707613918
2.68673938475927,-0.229130393272299
2.70706497178692,-0.214317370350688
2.72739055881457,-0.196163065804483
2.74771614584222,-0.174347750881365
2.76804173286987,-0.148928231478616
2.78836731989752,-0.120319237198723
2.80869290692517,-0.0892217393759303
2.82901849395282,-0.0565155515519145
2.84934408098048,-0.0231381156054148
2.86966966800813,0.0100282303295001
2.88999525503578,0.0422417539645581
2.91032084206343,0.0729474352549407
2.93064642909108,0.101779779621699
2.95097201611873,0.128526809774601
2.97129760314638,0.153066832595057
2.99162319017403,0.17529415156954
3.01194877720168,0.195051232195588
3.03227436422933,0.21208290019346
3.05259995125699,0.226023415171384
3.07292553828464,0.236420647603123
3.09325112531229,0.242794341930592
3.11357671233994,0.244718881269977
3.13390229936759,0.241916202093141
3.15422788639524,0.234342306785148
3.17455347342289,0.222251495694318
3.19487906045054,0.206225802906151
3.21520464747819,0.187162539377415
3.23553023450585,0.166219369568414
3.2558558215335,0.144722876272955
3.27618140856115,0.124052052699975
3.2965069955888,0.105511763733211
3.31683258261645,0.0902124368619403
3.3371581696441,0.0789709751074091
3.35748375667175,0.0722444301769612
3.3778093436994,0.070102975002362
3.39813493072705,0.0722430317223895
3.4184605177547,0.0780359707060088
3.43878610478236,0.0866034323681269
3.45911169181001,0.0969076437561761
3.47943727883766,0.107844398959353
3.49976286586531,0.118327594317469
3.52008845289296,0.127356989918387
3.54041403992061,0.134064610540553
3.56073962694826,0.137739191414561
3.58106521397591,0.137831622532074
3.60139080100356,0.133946888510999
3.62171638803121,0.125829196930007
3.64204197505887,0.113346755961657
3.66236756208652,0.0964811792090291
3.68269314911417,0.0753241496098404
3.70301873614182,0.0500812830151903
3.72334432316947,0.0210806451609994
3.74366991019712,-0.0112184243645234
3.76399549722477,-0.0462213077582882
3.78432108425242,-0.0832036793301014
3.80464667128008,-0.121329952986521
3.82497225830773,-0.159685748413118
3.84529784533538,-0.197322789402221
3.86562343236303,-0.233312229584506
3.88594901939068,-0.266800472149166
3.90627460641833,-0.297060485348804
3.92660019344598,-0.323531677747018
3.94692578047364,-0.345842595256122
3.96725136750129,-0.363812843102931
3.98757695452894,-0.377433374084526
4.00790254155659,-0.386827203482147
4.02822812858424,-0.392195274466445
4.04855371561189,-0.393754211919604
4.06887930263954,-0.391673782441214
4.0892048896672,-0.386021893970918
4.10953047669485,-0.376723958528037
4.1298560637225,-0.36354159551847
4.15018165075015,-0.346073270981551
4.1705072377778,-0.323776907141185
4.19083282480545,-0.296012112613731
4.2111584118331,-0.262097776900339
4.23148399886076,-0.221379545637002
4.25180958588841,-0.173301226505764
4.27213517291606,-0.117474428128577
4.29246075994371,-0.0537415601574106
4.31278634697136,0.0177714934112098
4.33311193399901,0.0966154166471997
4.35343752102666,0.181991419807172
4.37376310805432,0.27273942960426
4.39408869508197,0.367340161087576
4.41441428210962,0.463930747459428
4.43473986913727,0.560333597325768
4.45506545616492,0.654098323173806
4.47539104319257,0.742556820492269
4.49571663022022,0.822891631027473
4.51604221724788,0.892217415315193
4.53636780427553,0.947674682132614
4.55669339130318,0.986533948044883
4.57701897833083,1.00630733045472
4.59734456535848,1.00486335067826
4.61767015238613,0.980539616924157
4.63799573941378,0.932247258709585
4.65832132644144,0.859560648668075
4.67864691346909,0.762786163961855
4.69897250049674,0.643004522305034
4.71929808752439,0.502082522881908
4.73962367455204,0.342651717680298
4.75994926157969,0.168053476926144
4.78027484860734,-0.017748087347954
4.800600435635,-0.210281991955115
4.82092602266265,-0.404710086693574
4.8412516096903,-0.59598435833393
4.86157719671795,-0.779015001095473
4.8819027837456,-0.948841860165479
4.90222837077325,-1.10080193465899
4.9225539578009,-1.23068631023836
4.94287954482856,-1.33488058375315
4.96320513185621,-1.41048362171901
4.98353071888386,-1.45540047414624
5.00385630591151,-1.4684063674054
5.02418189293916,-1.44917977901627
5.04450747996681,-1.39830362162431
5.06483306699447,-1.31723458575354
5.08515865402212,-1.2082417570323
5.10548424104977,-1.07431673229493
5.12580982807742,-0.919058578908002
5.14613541510507,-0.746538073712365
5.16646100213272,-0.561146673402628
5.18678658916037,-0.367436537097523
5.20711217618803,-0.169958556153798
5.22743776321568,0.026894340534683
5.24776335024333,0.219031409884555
5.26808893727098,0.402789141246594
5.28841452429863,0.575031361440884
5.30874011132628,0.733219786072802
5.32906569835393,0.875452105870026
5.34939128538158,1.00046663367693
5.36971687240924,1.10761412506634
5.39004245943689,1.19679920561976
5.41036804646454,1.26839561093393
5.43069363349219,1.32314085947552
5.45101922051984,1.36201694359191
5.47134480754749,1.38612421719537
5.49167039457515,1.39655590101333
5.5119959816028,1.39428048620884
5.53232156863045,1.38003879152156
5.5526471556581,1.35426157442517
5.57297274268575,1.31701249796303
5.5932983297134,1.26795998594206
5.61362391674105,1.20638011540145
5.63394950376871,1.13119124680581
5.65427509079636,1.04101963170669
5.67460067782401,0.934293813747598
5.69492626485166,0.809364291187835
5.71525185187931,0.664643669975091
5.73557743890696,0.498761438193779
5.75590302593461,0.31072657036746
5.77622861296227,0.100090458788851
5.79655419998992,-0.13289779783274
5.81687978701757,-0.387151909300268
5.83720537404522,-0.660632746501864
5.85753096107287,-0.950264114039362
5.87785654810052,-1.25188702441195
5.89818213512817,-1.5602578113048
5.91850772215583,-1.86909442420468
5.93883330918348,-2.17117359557531
5.95915889621113,-2.4584794001127
5.97948448323878,-2.72240137940516
5.99981007026643,-2.95397810692839
6.02013565729408,-3.1441797458471
6.04046124432173,-3.28422081702081
6.06078683134939,-3.36589221089267
6.08111241837704,-3.38189965092032
6.10143800540469,-3.32619450777453
6.12705601170107,-3.14690546972223
6.15267401799746,-2.84247941766471
6.17829202429384,-2.41367237189753
6.20391003059022,-1.86639449746706
6.22952803688661,-1.21236550256148
6.25514604318299,-0.469021566841894
6.28076404947937,0.341319382076122
6.30638205577576,1.19238684848192
6.33200006207214,2.05483495229551
6.35761806836852,2.89734721065249
6.38323607466491,3.68804717644343
6.40885408096129,4.3959942651329
6.43447208725767,4.9925316449689
6.46009009355406,5.45242949830295
6.48570809985044,5.75488072514517
6.51132610614682,5.88435867204839
6.53694411244321,5.83125461652673
6.56256211873959,5.59222273814055
6.58818012503597,5.17025090229769
6.61379813133236,4.57452063264376
6.63941613762874,3.82008322007392
6.66503414392512,2.92734075348642
6.69065215022151,1.92133754392898
6.71627015651789,0.830904463476406
6.74188816281427,-0.312295278358585
6.76750616911066,-1.47479040777282
6.79312417540704,-2.6223761213658
6.81874218170342,-3.72120635976574
6.83903321263446,-4.53674340156191
6.8593242435655,-5.28621048162549
6.87961527449654,-5.95509252490892
6.89990630542757,-6.5313699029311
6.92019733635861,-7.00475752380017
6.94048836728965,-7.36620999528295
6.96077939822068,-7.60849691631986
6.98107042915172,-7.7268833163696
7.00136146008276,-7.7190929607159
7.0216524910138,-7.58493924947939
7.04194352194483,-7.32614670720467
7.06223455287587,-6.94636021837629
7.08252558380691,-6.45114758278581
7.10281661473794,-5.8479223770358
7.12310764566898,-5.14577638327462
7.14339867660002,-4.35523187742656
7.16368970753106,-3.48799488342883
7.18398073846209,-2.55679546157108
7.20427176939313,-1.57528871749405
7.22456280032417,-0.557912595255436
7.24485383125521,0.480338395099158
7.26514486218624,1.52415885208548
7.28543589311728,2.55812318848882
7.31137864602316,3.83975116208082
7.33732139892903,5.04791946343427
7.36326415183491,6.15287442324771
7.38920690474078,7.12565636548573
7.41514965764666,7.94012053792389
7.44109241055253,8.57371773858135
7.46703516345841,9.00732191666855
7.49297791636428,9.22556477063521
7.51892066927016,9.21772146221694
7.54486342217603,8.97837561683777
7.57080617508191,8.50768041228087
7.59674892798779,7.81147637004103
7.62269168089366,6.90142302367529
7.64863443379954,5.79509755638969
7.67457718670542,4.51592280516418
7.70051993961129,3.09283115776097
7.72646269251717,1.55969666431141
7.75240544542304,-0.0453795086946233
7.77834819832892,-1.68092171973335
7.8042909512348,-3.30313042698093
7.83023370414067,-4.86714545190532
7.85617645704655,-6.32845885893109
7.88211920995242,-7.64439386611793
7.9080619628583,-8.77560787659676
7.93400471576418,-9.68758347265756
7.95994746867005,-10.3520311651911
7.98589022157593,-10.7480987609584
8.0118329744818,-10.8632944937881
8.03251110840257,-10.7510683653426
8.05318924232333,-10.4595918158847
8.0738673762441,-9.99487628933587
8.09454551016487,-9.36659444804104
8.11522364408563,-8.58748307945822
8.13590177800639,-7.67294149695134
8.15657991192716,-6.64080779353902
8.17725804584792,-5.51093053621596
8.19793617976869,-4.30451141019841
8.21861431368946,-3.04349678501861
8.23929244761022,-1.75008447719131
8.25997058153098,-0.446234516459989
8.28064871545175,0.846811976535054
8.30132684937251,2.10892153675157
8.32200498329328,3.3213692673187
8.34268311721405,4.46710900945236
8.36336125113481,5.53100135352064
8.38403938505558,6.49994784072834
8.40471751897634,7.36292680002389
8.42539565289711,8.11098102501092
8.44607378681787,8.73719284644405
8.46675192073864,9.23663504354254
8.49280151796575,9.68074450583098
8.51885111519286,9.91719537604894
8.54490071241997,9.94793627619465
8.57095030964708,9.77811364103081
8.59699990687419,9.41603980955889
8.6230495041013,8.87280641936388
8.64909910132841,8.16163886727416
8.67514869855552,7.29750156338868
8.70119829578263,6.29694173222958
8.72724789300974,5.17795047032082
8.75329749023686,3.95980093818297
8.77934708746397,2.66290149718113
8.80539668469108,1.30869400201336
8.83144628191819,-0.0803891216109831
8.8574958791453,-1.48095907802954
8.88354547637241,-2.86877715010422
8.90959507359952,-4.21895014333693
8.93564467082663,-5.50617998787929
8.96169426805374,-6.7050591126848
8.98774386528085,-7.79045537587026
9.01379346250796,-8.73801331967499
9.03984305973507,-9.52474871304538
9.06589265696219,-10.1297000622762
9.0919422541893,-10.534619802152
9.11799185141641,-10.7246922209783
9.14404144864352,-10.6892435698003
9.17009104587063,-10.4223903899735
9.19614064309774,-9.92357346400473
9.22219024032485,-9.19793654234945
9.24823983755196,-8.25651614129788
9.27428943477907,-7.11621299083105
9.30033903200618,-5.79952726988172
9.32638862923329,-4.33405992181875
9.35243822646041,-2.75180278175751
9.37848782368752,-1.08825445697512
9.40453742091463,0.61859245674361
9.43058701814174,2.3293414462473
9.45663661536885,4.00430582173706
9.48268621259596,5.60459472403702
9.50873580982307,7.09312788187974
9.52943518692625,8.17472798525713
9.55013456402942,9.14836178744595
9.5708339411326,9.99920737752992
9.59153331823578,10.7153237890339
9.61223269533895,11.2867552930838
9.63293207244213,11.7048720501646
9.65363144954531,11.9629286757322
9.678581242879,12.0554223392249
9.70353103621269,11.907382239282
9.72848082954638,11.5209500491986
9.75343062288006,10.9020768526179
9.77838041621375,10.0610067775166
9.80333020954744,9.01238912234804
9.82828000288113,7.774784516312
9.85322979621482,6.37012740030289
9.87817958954851,4.82341781448929
9.9031293828822,3.16253557480096
9.92765358974747,1.44811820060834
9.95217779661273,-0.316174919624542
9.976702003478,-2.09773733386245
10,-3.77610569636092
10.0001989887242,-3.79036772404739
10.0003979774484,-3.80462863162085
10.0007959548969,-3.83314708632959
10.0015919097938,-3.89011583326859
10.0031838195876,-4.00380778110551
10.0063676391752,-4.23055171109601
10.0127352783503,-4.68094791450218
10.0254705567006,-5.5672689239696
10.0509411134012,-7.26021085200927
10.0764116701018,-8.82156935471927
10.1018822268024,-10.2205377979793
10.1273527835031,-11.4207421885383
10.1528233402037,-12.3891960884859
10.1782938969043,-13.1009682767689
10.2037644536049,-13.5368748787446
10.2292350103055,-13.6818527426806
10.2547055670061,-13.5264064816849
10.2801761237067,-13.0685529132576
10.3056466804073,-12.3145838719695
10.331117237108,-11.2786495277249
10.3565877938086,-9.98189160927935
10.3820583505092,-8.45195981168288
10.4075289072098,-6.72289009185198
10.4329994639104,-4.83449921810753
10.458470020611,-2.83093011624194
10.4839405773116,-0.758955437712306
10.5094111340122,1.33335363448288
10.5348816907128,3.39772474171954
10.5603522474135,5.38694911064431
10.5858228041141,7.2562897802242
10.6112933608147,8.96467703013939
10.6367639175153,10.4755206522597
10.6622344742159,11.7572895467673
10.6877050309165,12.7840286678868
10.7131755876171,13.5357828875461
10.7386461443177,13.9988135040747
10.7641167010184,14.165603593516
10.789587257719,14.0347521429702
